,Wavelength,Luminosity
0,20000.0,1.2291226675782663e+37
1,19922.303018228908,1.246379928797235e+37
2,19845.207382417146,1.2636981745507582e+37
3,19768.706138183254,1.2817059884345322e+37
4,19692.792437967706,1.3028555416494778e+37
5,19617.4595389897,1.3263964741286805e+37
6,19542.700801250732,1.3525819644112457e+37
7,19468.50968558357,1.3824212678245438e+37
8,19394.87975174554,1.4172665990645254e+37
9,19321.804656554923,1.4582920449287376e+37
10,19249.278152069295,1.5027963696997968e+37
11,19177.294083804773,1.5524364114787002e+37
12,19105.846388995033,1.6070553234455709e+37
13,19034.92909488912,1.6665441676146933e+37
14,18964.536317087048,1.7326747322632776e+37
15,18894.66225791214,1.8071695511906558e+37
16,18825.301204819276,1.8930906549438883e+37
17,18756.447528838038,1.9930412277889452e+37
18,18688.095683049898,2.111848986768499e+37
19,18620.240201098593,2.244953695730019e+37
20,18552.875695732837,2.39316206898299e+37
21,18485.996857380534,2.5704669094775835e+37
22,18419.59845275373,2.7763032419613306e+37
23,18353.675323483527,3.0048098556428637e+37
24,18288.2223847842,3.2845420536917366e+37
25,18223.234624145785,3.5860925746706203e+37
26,18158.70710005448,3.9299384522730875e+37
27,18094.63494074007,4.309898641582005e+37
28,18031.013342949875,4.778698821460875e+37
29,17967.83757074836,5.276427219078092e+37
30,17905.102954341986,5.7008461327214835e+37
31,17842.80488892854,6.119615392389869e+37
32,17780.938833570413,6.482150042024994e+37
33,17719.500310091258,6.772715068623825e+37
34,17658.48490199541,7.0401469717442935e+37
35,17597.88825340959,7.283190055344749e+37
36,17537.7060680463,7.514334352212051e+37
37,17477.934108188412,7.728987182717808e+37
38,17418.56819369448,7.790649779068977e+37
39,17359.604201024216,7.176746289979782e+37
40,17301.038062283737,5.520271887987484e+37
41,17242.865764290025,2.9763095709787424e+37
42,17185.083347654236,2.266276614855617e+37
43,17127.68690588336,2.3370084614963384e+37
44,17070.67258449983,2.416074033095163e+37
45,17014.036580178647,2.5067018952627613e+37
46,16957.775139901645,2.5924374360626247e+37
47,16901.884560128452,2.677279517267808e+37
48,16846.361185983827,2.762124057794478e+37
49,16791.20141046092,2.8463479567656977e+37
50,16736.401673640165,2.926488223442501e+37
51,16681.95846192343,3.014912788029968e+37
52,16627.868307283006,3.1147015067631483e+37
53,16574.127786525234,3.2489240577750253e+37
54,16520.733520568312,3.489424135887998e+37
55,16467.682173734047,3.781827493823216e+37
56,16414.970453053185,4.066554178381103e+37
57,16362.595107584062,4.376320337725012e+37
58,16310.55292774425,4.694306671132508e+37
59,16258.840744654906,5.03812888903722e+37
60,16207.455429497568,5.423051630287085e+37
61,16156.393892883107,5.752294113554254e+37
62,16105.653084232566,6.013594327933527e+37
63,16055.229991169623,6.243607488010164e+37
64,16005.121638924456,6.451446970127828e+37
65,15955.325089748701,6.627219176112737e+37
66,15905.837442341339,6.79426495559309e+37
67,15856.655831285181,6.942783362780163e+37
68,15807.777426493836,7.074477717845078e+37
69,15759.19943266882,7.200818609151721e+37
70,15710.919088766692,7.31737835715632e+37
71,15662.933667475918,6.924292226677306e+37
72,15615.240474703309,3.102179917547204e+37
73,15567.836849069823,3.029711188772309e+37
74,15520.72016141549,3.060274355161563e+37
75,15473.887814313346,3.0916660375088667e+37
76,15427.337241592102,3.1241970230986206e+37
77,15381.065907867414,3.1566236583928327e+37
78,15335.07130808158,3.1898619209476666e+37
79,15289.350967051449,3.2230108941429194e+37
80,15243.90243902439,3.262544561459374e+37
81,15198.723307242191,3.3000346079044565e+37
82,15153.811183512653,3.3358043134371766e+37
83,15109.163707788774,3.370977135973104e+37
84,15064.778547755348,3.406504131757201e+37
85,15020.65339842283,3.4419308192343624e+37
86,14976.78598172832,3.4770550461879568e+37
87,14933.174046143507,3.513973804640716e+37
88,14889.815366289458,3.555083956086822e+37
89,14846.707742558088,3.602359666810322e+37
90,14803.849000740192,3.6566771020835606e+37
91,14761.2369916599,3.718302546708695e+37
92,14718.869590815424,3.786086235035057e+37
93,14676.744698025977,3.8596072622042167e+37
94,14634.860237084737,3.942000655106867e+37
95,14593.21415541773,4.0326918067779674e+37
96,14551.804423748546,4.132231184506659e+37
97,14510.629035768701,4.238314272897034e+37
98,14469.686007813632,4.350723001421604e+37
99,14428.973378544119,4.473653702427442e+37
100,14388.489208633096,4.600252997461609e+37
101,14348.23158045771,4.732957061557237e+37
102,14308.198597796538,4.8723390277865885e+37
103,14268.388385531856,5.022097984008417e+37
104,14228.79908935686,5.190313917544564e+37
105,14189.428875487763,5.382085901101047e+37
106,14150.275930380643,5.600155890708157e+37
107,14111.338460452975,5.853281499426655e+37
108,14072.61469180974,6.12584486199986e+37
109,14034.10286997404,6.454103193282136e+37
110,13995.801259622114,6.809975266560083e+37
111,13957.708144322703,7.22407599372347e+37
112,13919.821826280626,7.697544420491875e+37
113,13882.140626084543,8.303278940912838e+37
114,13844.662882458813,8.901078074531752e+37
115,13807.386952019331,9.539941632950055e+37
116,13770.311209033325,1.0227095150154221e+38
117,13733.434045183,1.0949946353443764e+38
118,13696.75386933297,1.1753382887864858e+38
119,13660.269107301414,1.2638770584433314e+38
120,13623.978201634878,1.3523481081931243e+38
121,13587.879611386645,1.4321363742136626e+38
122,13551.971811898633,1.5073816810539885e+38
123,13516.253294586742,1.5768308813140529e+38
124,13480.722566729579,1.636184363908767e+38
125,13445.378151260506,1.6887607213580273e+38
126,13410.218586562962,1.7375580956934025e+38
127,13375.242426268976,1.7812179472984186e+38
128,13340.448239060834,1.823823778788798e+38
129,13305.834608475818,1.8617647033584064e+38
130,13271.400132714003,1.8979877726880424e+38
131,13237.143424449005,1.9310463629863384e+38
132,13203.06311064167,1.9353839736706355e+38
133,13169.157832356621,1.838967509006573e+38
134,13135.426244581637,1.5490175216857128e+38
135,13101.867016049788,1.0778316418603934e+38
136,13068.478829064297,6.761667495014882e+37
137,13035.260379326079,5.545155570370671e+37
138,13002.210375763882,5.559869916150699e+37
139,12969.327540367032,5.6322016368501685e+37
140,12936.610608020701,5.700380710532863e+37
141,12904.058326343637,5.764891660353653e+37
142,12871.669455528383,5.825556111167894e+37
143,12839.442768183862,5.884037682409695e+37
144,12807.37704918033,5.938527603224465e+37
145,12775.471095496649,5.992178915512398e+37
146,12743.723716069837,6.047019517303502e+37
147,12712.133731646858,6.102651716075974e+37
148,12680.6999746386,6.158792536713794e+37
149,12649.42128897603,6.222115248715401e+37
150,12618.296529968455,6.279451920548519e+37
151,12587.324564163888,6.332481563550388e+37
152,12556.504269211451,6.38426135221105e+37
153,12525.83453372581,6.435274232352502e+37
154,12495.314257153568,6.4853917412861385e+37
155,12464.942349641633,6.534027022951845e+37
156,12434.717731907487,6.582925349248474e+37
157,12404.639335111333,6.632579720270906e+37
158,12374.706100730109,6.683607695549029e+37
159,12344.916980433307,6.740564276521456e+37
160,12315.270935960592,6.798942815254213e+37
161,12285.766939001167,6.8617782835325515e+37
162,12256.403971074888,6.930797763732704e+37
163,12227.181023415053,7.005483883855282e+37
164,12198.09709685289,7.080461852277379e+37
165,12169.15120170368,7.157006409357137e+37
166,12140.342357654488,7.233345668934916e+37
167,12111.669593653487,7.311808412501833e+37
168,12083.13194780087,7.398212150924994e+37
169,12054.728467241277,7.48731717416943e+37
170,12026.458208057727,7.581313781041315e+37
171,11998.320235167079,7.688195744230958e+37
172,11970.313622216903,7.811023382883464e+37
173,11942.437451483847,7.932743502745699e+37
174,11914.690813773383,8.061291561278729e+37
175,11887.072808320952,8.195294621683609e+37
176,11859.582542694498,8.33642333840834e+37
177,11832.21913269834,8.508712702640916e+37
178,11804.981702278363,8.722429401031708e+37
179,11777.869383428537,8.968673534578193e+37
180,11750.881316098707,9.237155730512195e+37
181,11724.016648103641,9.512213679846575e+37
182,11697.274535033339,9.772430902869295e+37
183,11670.654140164557,1.003015726539305e+38
184,11644.154634373546,1.0279193609691257e+38
185,11617.775196049957,1.0503630067602975e+38
186,11591.51501101194,1.0726241068642449e+38
187,11565.373272422368,1.0934941531643513e+38
188,11539.34918070621,1.1175405791280214e+38
189,11513.441943469,1.1433977434262224e+38
190,11487.650775416429,1.1702099750487107e+38
191,11461.974898274973,1.2014505385693159e+38
192,11436.413540713633,1.2387408697421537e+38
193,11410.965938266676,1.2812091619118744e+38
194,11385.63133325743,1.3298621541965847e+38
195,11360.40897472309,1.3757567209861048e+38
196,11335.298118340514,1.426897804812495e+38
197,11310.298026352993,1.4907786150187214e+38
198,11285.407967498026,1.5889402262890559e+38
199,11260.627216935984,1.6157200682443341e+38
200,11235.955056179775,1.6907472865043774e+38
201,11211.390773025394,1.80779783541395e+38
202,11186.933661483388,1.9232298557316797e+38
203,11162.583021711223,2.0331300344022615e+38
204,11138.338159946536,2.1411211631340433e+38
205,11114.198388441235,2.2453737730826674e+38
206,11090.163025396474,2.346742626180822e+38
207,11066.231394898468,2.443966993999696e+38
208,11042.402826855125,2.5360864286606754e+38
209,11018.676656933503,2.6248365339804323e+38
210,10995.052226498075,2.7062604823228024e+38
211,10971.528882549783,2.772219154612269e+38
212,10948.105977665866,2.8178611741584577e+38
213,10924.78286994046,2.8464102584553336e+38
214,10901.558922925979,2.854190936991531e+38
215,10878.433505575198,2.8374456726036105e+38
216,10855.405992184109,2.8097062037298573e+38
217,10832.475762335482,2.760977594212861e+38
218,10809.642200843153,2.682947841844721e+38
219,10786.904697696997,2.6207730199411645e+38
220,10764.262648008611,2.5653157176195896e+38
221,10741.715451957678,2.438532893337176e+38
222,10719.262514738984,2.3209674808888267e+38
223,10696.903246510135,2.223342363780677e+38
224,10674.63706233988,2.1486544592946595e+38
225,10652.463382157124,2.128067128594126e+38
226,10630.381630700542,2.05624438498356e+38
227,10608.391237468839,1.9803963636051557e+38
228,10586.491636671606,1.9091683006275526e+38
229,10564.682267180815,1.8905429031196117e+38
230,10542.96257248287,1.8666425474580884e+38
231,10521.33200063128,1.8242957822681666e+38
232,10499.790004199916,1.8319170330157833e+38
233,10478.33604023681,1.8231380375062913e+38
234,10456.96957021855,1.6090952281050717e+38
235,10435.690060005218,1.4561637125576655e+38
236,10414.496979795875,1.4949795812606347e+38
237,10393.389804084602,1.5377585941963164e+38
238,10372.36801161705,1.5827547664514869e+38
239,10351.431085347549,1.6291551206129321e+38
240,10330.578512396694,1.675840445663421e+38
241,10309.809784009485,1.7198641367595406e+38
242,10289.124395513942,1.7602348928115844e+38
243,10268.52184628023,1.799656269438159e+38
244,10248.001639680264,1.8382065849010682e+38
245,10227.563283047815,1.87414383101403e+38
246,10207.206287639074,1.9066631803932588e+38
247,10186.930168593695,1.9383580994859828e+38
248,10166.7344448963,1.9700675316092916e+38
249,10146.618639338441,2.000057551243411e+38
250,10126.582278481013,2.030321564334627e+38
251,10106.62489261711,2.0604356615886917e+38
252,10086.746015735325,2.0890898735961962e+38
253,10066.945185483466,2.1214210501616134e+38
254,10047.221943132723,2.1535363998905032e+38
255,10027.57583354224,2.1858561914602875e+38
256,10008.006405124099,2.216223540295771e+38
257,9988.513209808722,2.246556064432743e+38
258,9969.095803010667,2.273505658140384e+38
259,9949.753743594847,2.257044774385291e+38
260,9930.486593843098,2.0971823828664645e+38
261,9911.293919421181,1.745108537522178e+38
262,9892.175289346129,1.5709261761429545e+38
263,9873.130275953992,1.5898986093660742e+38
264,9854.158454867955,1.617375116776503e+38
265,9835.259404966806,1.6460956121384327e+38
266,9816.432708353785,1.6774570199021662e+38
267,9797.677950325773,1.7103388820015955e+38
268,9778.99471934285,1.7454702696094756e+38
269,9760.382606998195,1.7845546864649192e+38
270,9741.84120798831,1.824898116320515e+38
271,9723.370120083622,1.8698289324543297e+38
272,9704.968944099379,1.9253543477336005e+38
273,9686.637283866905,1.9851104073991517e+38
274,9668.374746205162,2.048128982972678e+38
275,9650.180940892642,2.1117731956141234e+38
276,9632.055480639568,2.1770337421908954e+38
277,9613.997981060424,2.2453836344345837e+38
278,9596.008060646773,2.3140321085021453e+38
279,9578.085340740385,2.3815195201931105e+38
280,9560.229445506693,2.4483865614602204e+38
281,9542.44000190849,2.5169168598857657e+38
282,9524.71663967997,2.5872556026093607e+38
283,9507.05899130104,2.661791312200162e+38
284,9489.466691971911,2.7292174020604675e+38
285,9471.939379587971,2.7921448078720995e+38
286,9454.476694714947,2.8507669206576758e+38
287,9437.078280564338,2.904961870110962e+38
288,9419.743782969103,2.9550887751052862e+38
289,9402.472850359645,3.002002765393583e+38
290,9385.265133740028,3.0470815280737907e+38
291,9368.120286664482,3.095676545005016e+38
292,9351.037965214138,3.1285232515212172e+38
293,9334.017827974052,3.1530488304746027e+38
294,9317.059536010434,3.170916495531296e+38
295,9300.162752848175,3.182081079190675e+38
296,9283.32714444857,3.184793963496164e+38
297,9266.552379187324,3.1890550240170677e+38
298,9249.838127832763,3.185020357489691e+38
299,9233.184063524306,3.159353057025577e+38
300,9216.589861751152,2.8642781473801995e+38
301,9200.055200331202,2.422962638942503e+38
302,9183.57975939021,2.346830907815121e+38
303,9167.163221341156,2.259913192138766e+38
304,9150.805270863837,2.1007581338253853e+38
305,9134.505594884677,1.858641120050353e+38
306,9118.263882556761,1.458076546815418e+38
307,9102.079825240067,1.327104384102813e+38
308,9085.953116481918,1.2907739401550923e+38
309,9069.883451997643,1.256257185178977e+38
310,9053.870529651425,1.3335484056565775e+38
311,9037.91404943739,1.4206971523832915e+38
312,9022.013713460845,1.5016154584376817e+38
313,9006.169225919755,1.555723943051456e+38
314,8990.380293086399,1.6052467525013382e+38
315,8974.646623289209,1.6548219659922813e+38
316,8958.967926894822,1.7112488329918258e+38
317,8943.343916290301,1.7595138320609604e+38
318,8927.774305865549,1.8026579229889944e+38
319,8912.2588119959,1.855639914493401e+38
320,8896.79715302491,1.9100183810400804e+38
321,8881.389049247302,1.9581506233963755e+38
322,8866.0342228921,2.0259339442289467e+38
323,8850.732398105944,2.081947393643274e+38
324,8835.483300936561,2.1498647360918413e+38
325,8820.286659316427,2.2179786660429195e+38
326,8805.142203046578,2.284801051215898e+38
327,8790.0496637806,2.3509530613619708e+38
328,8775.008775008775,2.417165619094091e+38
329,8760.019272042398,2.4759456761296185e+38
330,8745.080891998252,2.53189659380504e+38
331,8730.19337378323,2.5847923836141346e+38
332,8715.356458079135,2.6312008045284583e+38
333,8700.56988732762,2.677264886913893e+38
334,8685.833405715279,2.721463097073325e+38
335,8671.146759158899,2.7660629335397673e+38
336,8656.509695290859,2.8100680930353952e+38
337,8641.92196344467,2.8527799220179067e+38
338,8627.383314640669,2.8955335498643876e+38
339,8612.893501571853,2.9324177573095815e+38
340,8598.452278589853,2.95513583449071e+38
341,8584.05940169106,2.983261858247619e+38
342,8569.714628502872,3.0052767515051595e+38
343,8555.417718270095,3.0131937835784944e+38
344,8541.168431841475,3.0256277191805732e+38
345,8526.966531656362,3.0103622790169156e+38
346,8512.811781731505,2.9636439835025746e+38
347,8498.703947647984,2.8988605679505947e+38
348,8484.642796538266,2.8629808463877572e+38
349,8470.628097073397,2.8138011034126076e+38
350,8456.659619450318,2.7575049154635e+38
351,8442.73713537929,2.68670512247024e+38
352,8428.860418071477,2.6079166656191476e+38
353,8415.029242226616,2.5133191761075432e+38
354,8401.243384020836,2.4111464080133406e+38
355,8387.502621094569,2.177962149724022e+38
356,8373.806732540612,1.996050673380497e+38
357,8360.15549889228,1.766214593551725e+38
358,8346.548702111677,1.5828495307135238e+38
359,8332.986125578102,1.5280569969325756e+38
360,8319.46755407654,1.5304899094182163e+38
361,8305.992773786287,1.538915016059001e+38
362,8292.561572269675,1.5636305888025232e+38
363,8279.1737384609,1.4170120591007593e+38
364,8265.829062654984,1.4180738971221376e+38
365,8252.527336496802,1.4432664069696847e+38
366,8239.268352970255,1.3529293221667393e+38
367,8226.051906387529,1.3740535539792038e+38
368,8212.87779237845,1.4160360942371138e+38
369,8199.745807879955,1.4568237193354467e+38
370,8186.655751125665,1.6704009548839326e+38
371,8173.607421635538,1.9096304055650923e+38
372,8160.600620205647,2.1458380237930643e+38
373,8147.635148898032,2.3869235036006236e+38
374,8134.710811030667,2.61258771512212e+38
375,8121.827411167513,2.869522280606029e+38
376,8108.98475510866,3.134954964445755e+38
377,8096.182649880581,3.3932836179343384e+38
378,8083.420903726457,3.641010009116843e+38
379,8070.6993260966065,3.872194302207175e+38
380,8058.017727639,4.103797769585171e+38
381,8045.37592018987,4.338753908577546e+38
382,8032.773716764399,4.566653597082526e+38
383,8020.2109315475,4.777739071972645e+38
384,8007.68737988469,4.970815230032094e+38
385,7995.202878273038,5.138668811457625e+38
386,7982.7572443522,5.316568205888447e+38
387,7970.350296895549,5.4944947424432885e+38
388,7957.98185580137,5.617570925888171e+38
389,7945.651742084146,5.6448228037529025e+38
390,7933.359777865927,5.613231362466566e+38
391,7921.105786367778,5.565365575901662e+38
392,7908.889591901298,5.454850655902974e+38
393,7896.711019860229,5.373702499116785e+38
394,7884.569896712135,5.311132784080011e+38
395,7872.46604999016,5.263751872434789e+38
396,7860.399308284863,5.334491006975243e+38
397,7848.369501236119,5.420026632609023e+38
398,7836.376459525117,5.486359147545763e+38
399,7824.420014866399,5.488833667345395e+38
400,7812.500000000001,5.446794945739409e+38
401,7800.6162486836465,5.368971369895977e+38
402,7788.768595685023,5.265518303212864e+38
403,7776.956876774119,5.153522224872486e+38
404,7765.18092871564,5.0277949130913794e+38
405,7753.440589261486,4.8603751296163954e+38
406,7741.7356971433,4.684528299711033e+38
407,7730.066092065088,4.569149170358409e+38
408,7718.4316146958945,4.449107986189247e+38
409,7706.832106662557,4.323570689491881e+38
410,7695.267410542517,4.256049797259436e+38
411,7683.737369856699,4.3061889804101115e+38
412,7672.241829062453,4.360742485427439e+38
413,7660.780633546559,4.409834223520912e+38
414,7649.353629618298,4.4716682244305884e+38
415,7637.960664502579,4.547216656349838e+38
416,7626.60158633313,4.617476350412193e+38
417,7615.276244145758,4.683592541120167e+38
418,7603.984487871646,4.752586030056098e+38
419,7592.72616833074,4.843725027065719e+38
420,7581.501137225171,4.929691728644601e+38
421,7570.309247132746,5.0214778274064665e+38
422,7559.150351500492,5.121378995998267e+38
423,7548.024304638262,5.295901138860527e+38
424,7536.930961712392,5.3789660757831656e+38
425,7525.8701787394175,5.502774642559248e+38
426,7514.841812579846,5.609093255607694e+38
427,7503.845720931979,5.7077995573318086e+38
428,7492.881762325792,5.79965983342438e+38
429,7481.949796116869,5.9313587795017954e+38
430,7471.0496824803895,6.102060107987653e+38
431,7460.181282405163,6.256627915510344e+38
432,7449.344457687725,6.325383086822151e+38
433,7438.539070926471,6.1140417217872555e+38
434,7427.764985515859,5.7043278223600286e+38
435,7417.022065640646,5.738517477925962e+38
436,7406.310176270184,5.830184575134361e+38
437,7395.629183152757,5.669557793920364e+38
438,7384.9789528099855,5.3763685052181174e+38
439,7374.35935253125,5.2863787702186564e+38
440,7363.770250368189,5.2496293985364744e+38
441,7353.211515129234,5.237349486862599e+38
442,7342.683016374184,5.282555274769603e+38
443,7332.184624408843,5.292176552006976e+38
444,7321.71621027969,5.274623804012192e+38
445,7311.277645768599,5.283925827130908e+38
446,7300.868803387603,5.3441344180718466e+38
447,7290.489556373712,5.37324114963326e+38
